Time,Angle,Angular_Velocity
0.0,45.00,0.00
0.1,43.25,-34.55
0.2,38.25,-64.24
0.3,30.51,-85.15
0.4,20.81,-94.63
0.5,10.08,-91.65
0.6,-0.75,-77.01
0.7,-10.84,-52.75
0.8,-19.46,-21.75
0.9,-25.98,12.51
1.0,-30.00,46.36
1.1,-31.29,76.24
1.2,-29.83,99.01
1.3,-25.75,112.26
1.4,-19.38,114.68
1.5,-11.19,106.07
1.6,-1.76,87.35
1.7,8.23,60.48
1.8,18.06,28.18
1.9,27.02,-6.67
2.0,34.46,-40.91